# Transfer function for the ratio between neutrinos and CDM.
#         This is T_i(k) / T_{cb}(k) where T_i is the total neutrinos and cb is the cdm and baryon combined transfer function.
#         
1.051382316277000037e-05 1.700556496289255648e+00
1.323611915471999920e-05 1.700553031122853609e+00
1.666328675740999900e-05 1.700547539163012711e+00
2.097783514292000137e-05 1.700538835059512976e+00
2.640952974585000090e-05 1.700525040029546409e+00
3.324762811058000207e-05 1.700503176679917905e+00
4.185628391030000095e-05 1.700468526118313006e+00
5.269393945794000148e-05 1.700413610125207864e+00
6.633773943115000248e-05 1.700326577718331844e+00
8.351426593085000012e-05 1.700188649689027054e+00
1.051382316276999935e-04 1.699970070983177317e+00
1.323611915472000056e-04 1.699623703347202586e+00
1.666328675740999900e-04 1.699074889667286481e+00
2.097783514291999866e-04 1.698205434656803847e+00
2.640952974584999955e-04 1.696828335174703550e+00
3.324762811057999936e-04 1.694648023680703997e+00
4.185628391030000095e-04 1.691198093690516879e+00
5.269393945794000013e-04 1.685744439518888083e+00
6.633773943115000519e-04 1.677136344177472482e+00
8.351426593085000284e-04 1.663581862003381540e+00
1.051382316277000043e-03 1.642320018245664981e+00
1.323611915472000002e-03 1.609170109436765861e+00
1.666328675740999955e-03 1.558014672207430618e+00
2.097783514291999812e-03 1.480230603998305750e+00
2.640952974585000172e-03 1.364860132942074422e+00
3.324762811058000044e-03 1.200494565984431272e+00
4.185628391030000311e-03 9.812754988051987093e-01
5.269393945794000229e-03 7.194127064690748474e-01
6.633773943115000085e-03 4.606616571231876289e-01
8.351426593084999850e-03 2.784001547861480463e-01
1.051382316276999913e-02 2.046336363565600946e-01
1.323611915472000002e-02 1.595568333260078686e-01
1.666328675737999837e-02 1.035169594303519680e-01
2.097783496411999987e-02 7.872677696099744660e-02
2.640939595307999904e-02 5.458320407306699318e-02
3.322936654742000145e-02 3.762719991495325211e-02
4.125617496873999757e-02 1.609346574959088366e-02
4.800374014536999689e-02 1.186546776950580737e-02
5.290085060630000252e-02 1.069965212493261680e-02
5.694237989432000130e-02 7.761467342082670542e-03
6.055237873061999898e-02 7.551746334058377121e-03
6.392011713560000197e-02 6.328071561492225328e-03
6.714586925696000574e-02 5.481506333728144650e-03
7.028980131591000546e-02 5.520663818563619971e-03
7.339145461491000666e-02 4.446353167405485418e-03
7.647870779849000322e-02 4.423852149725412443e-03
7.957236737924999748e-02 4.158939853069735029e-03
8.268871979559000440e-02 3.521518809104466543e-03
8.584104417721999392e-02 3.705372024428354050e-03
8.904055632436000400e-02 3.197414865853548567e-03
9.229702294218999903e-02 3.045498586269158869e-03
9.561917533887000220e-02 3.023286968191727774e-03
9.901499611759000119e-02 2.551534912161635988e-03
1.024919225684000068e-01 2.690466761204974352e-03
1.060569937275999963e-01 2.255791307365947844e-03
1.097169583002999965e-01 2.266939399912138494e-03
1.134783547379999979e-01 2.014193880170170748e-03
1.173475710970000030e-01 1.884964120245561595e-03
1.213308899653999934e-01 1.762416562002050305e-03
1.254345222333000109e-01 1.601283455868676795e-03
1.296646324835999953e-01 1.507657583440166326e-03
1.340273581166999961e-01 1.425229789937529096e-03
1.385288238848000064e-01 1.259063745537153216e-03
1.431751532154000028e-01 1.335295482820418426e-03
1.479724775105999979e-01 1.059013176070942907e-03
1.529269444879000073e-01 1.196995679311019505e-03
1.580447265421000003e-01 1.048083962987863930e-03
1.633320300638000100e-01 9.013269217197254291e-04
1.687951066147999890e-01 1.018312747963981066e-03
1.744402668446000115e-01 8.852792589763537005e-04
1.802738980146000036e-01 7.076234366804725956e-04
1.863024859924999888e-01 7.371964578750383069e-04
1.925326425711000045e-01 7.740424670385304216e-04
1.989711389720000001e-01 6.813013650347851018e-04
2.056249464058000076e-01 5.619240373566834973e-04
2.125012845949000029e-01 4.979457738645418552e-04
2.196076792230000074e-01 4.863022575437842931e-04
2.269520293729999916e-01 4.900970524360330483e-04
2.345426861657000095e-01 4.807650670991562235e-04
2.423885440276999925e-01 4.576145381879139526e-04
2.504991463262999929e-01 4.225435370600199875e-04
2.588848075287000228e-01 3.799846286886318474e-04
2.675567546124000273e-01 3.344101005897047430e-04
2.765272912101999769e-01 2.980431746498941620e-04
2.858099889756000045e-01 2.877287137106239738e-04
2.954199119804999940e-01 3.047501238418038987e-04
3.053738817121999793e-01 3.063981854134175190e-04
3.156907925754000033e-01 2.588237629718234006e-04
3.263919909460999969e-01 2.188286853779574444e-04
3.375017350810999850e-01 2.478886259035258219e-04
3.490477590323999846e-01 1.991759874684417625e-04
3.610619718427999780e-01 2.107266618050666147e-04
3.735813347672000129e-01 1.639971892195587588e-04
3.866489757007000039e-01 2.028063827425125791e-04
4.003156239655000226e-01 1.510702777392210281e-04
4.146414842091999953e-01 1.225377352095575502e-04
4.296987221338999796e-01 1.254642681537129290e-04
4.455748183994999723e-01 1.204511672296322035e-04
4.623771798485000195e-01 1.020538805681503995e-04
4.802396138835999806e-01 9.658682539132231999e-05
4.993316362456999835e-01 1.194456056396617726e-04
5.198722164704999704e-01 8.227112560888745301e-05
5.421507114735000243e-01 9.089521950268168607e-05
5.665599016368000340e-01 8.407773242813169586e-05
5.936503357550000359e-01 5.768569444045089763e-05
6.242241949440000548e-01 5.449563590980175076e-05
6.595070046382000006e-01 5.880949678376950893e-05
7.014836849851000533e-01 6.265207994303202124e-05
7.536087601297000171e-01 4.074171127797723976e-05
8.224282169237999707e-01 4.450799470735568791e-05
9.214108144371000453e-01 3.441987881850564878e-05
1.078020410343000002e+00 1.434161017873820818e-05
1.327148115179999976e+00 1.337902942869633706e-05
1.668075680614999889e+00 5.870681034268375602e-06
2.099932102787000154e+00 5.243303449610037752e-06
2.643657700918999875e+00 4.710389821470869917e-06
3.328167859675999818e+00 3.955684203366891118e-07
4.189915093263000045e+00 2.636039773845800100e-06
5.274790584168999708e+00 1.651910024506152539e-06
6.640567908302999811e+00 7.470030195806077846e-07
8.359979688506999906e+00 1.059867301849419890e-07
1.052459087193999920e+01 3.348436634943789843e-07
1.324967489742999938e+01 -1.992514493630278949e-07
1.668035242638000071e+01 -1.386165603785574422e-07
2.099931954726000072e+01 3.855648141918504732e-08
2.643657700842999958e+01 3.816063013113445912e-08
3.328167859676000262e+01 7.861547640529254559e-08
4.189915093263000045e+01 5.628529208352409039e-08
5.274790584168999885e+01 -1.843301462709866686e-08
6.640567908302999456e+01 -3.051307595641071945e-08
8.359979688507000617e+01 2.984746379444949050e-09
1.052459087194000062e+02 1.498637700173909758e-09
